# Columns: z(cm), ampl(tesla), phserr, total(tesla)
# total = ampl * sin ( twopi/period*z + phserr ) 
# period=  3.30000  nper=  75  npts=  40
     0.00000E-01    4.04158E-01    0.00000E-01    0.00000E-01
     8.25000E-02    4.04135E-01    0.00000E-01    6.32206E-02
     1.65000E-01    4.04111E-01    0.00000E-01    1.24877E-01
     2.47500E-01    4.04088E-01    0.00000E-01    1.83452E-01
     3.30000E-01    4.04065E-01    0.00000E-01    2.37503E-01
     4.12500E-01    4.04041E-01    0.00000E-01    2.85700E-01
     4.95000E-01    4.04018E-01    0.00000E-01    3.26858E-01
     5.77500E-01    4.03995E-01    0.00000E-01    3.59962E-01
     6.60000E-01    4.03971E-01    0.00000E-01    3.84200E-01
     7.42500E-01    4.03948E-01    0.00000E-01    3.98975E-01
     8.25000E-01    4.03925E-01    0.00000E-01    4.03925E-01
     9.07500E-01    4.03901E-01    0.00000E-01    3.98929E-01
     9.90000E-01    4.03878E-01    0.00000E-01    3.84111E-01
     1.07250E+00    4.03855E-01    0.00000E-01    3.59837E-01
     1.15500E+00    4.03832E-01    0.00000E-01    3.26707E-01
     1.23750E+00    4.03808E-01    0.00000E-01    2.85536E-01
     1.32000E+00    4.03785E-01    0.00000E-01    2.37339E-01
     1.40250E+00    4.03762E-01    0.00000E-01    1.83304E-01
     1.48500E+00    4.03738E-01    0.00000E-01    1.24762E-01
     1.56750E+00    4.03715E-01    0.00000E-01    6.31549E-02
     1.65000E+00    4.03692E-01    0.00000E-01    1.44917E-09
     1.73250E+00    4.03668E-01    0.00000E-01   -6.31476E-02
     1.81500E+00    4.03645E-01    0.00000E-01   -1.24733E-01
     1.89750E+00    4.03622E-01    0.00000E-01   -1.83240E-01
     1.98000E+00    4.03598E-01    0.00000E-01   -2.37229E-01
     2.06250E+00    4.03575E-01    0.00000E-01   -2.85371E-01
     2.14500E+00    4.03552E-01    0.00000E-01   -3.26480E-01
     2.22750E+00    4.03529E-01    0.00000E-01   -3.59547E-01
     2.31000E+00    4.03505E-01    0.00000E-01   -3.83756E-01
     2.39250E+00    4.03482E-01    0.00000E-01   -3.98514E-01
     2.47500E+00    4.03459E-01    0.00000E-01   -4.03459E-01
     2.55750E+00    4.03435E-01    0.00000E-01   -3.98468E-01
     2.64000E+00    4.03412E-01    0.00000E-01   -3.83668E-01
     2.72250E+00    4.03389E-01    0.00000E-01   -3.59422E-01
     2.80500E+00    4.03365E-01    0.00000E-01   -3.26330E-01
     2.88750E+00    4.03342E-01    0.00000E-01   -2.85206E-01
     2.97000E+00    4.03319E-01    0.00000E-01   -2.37065E-01
     3.05250E+00    4.03296E-01    0.00000E-01   -1.83092E-01
     3.13500E+00    4.03272E-01    0.00000E-01   -1.24618E-01
     3.21750E+00    4.03249E-01    0.00000E-01   -6.30821E-02
     3.30000E+00    4.03226E-01    0.00000E-01   -2.89499E-09
     3.38250E+00    4.03203E-01    0.00000E-01    6.30748E-02
     3.46500E+00    4.03179E-01    0.00000E-01    1.24589E-01
     3.54750E+00    4.03156E-01    0.00000E-01    1.83029E-01
     3.63000E+00    4.03133E-01    0.00000E-01    2.36955E-01
     3.71250E+00    4.03109E-01    0.00000E-01    2.85041E-01
     3.79500E+00    4.03086E-01    0.00000E-01    3.26104E-01
     3.87750E+00    4.03063E-01    0.00000E-01    3.59132E-01
     3.96000E+00    4.03040E-01    0.00000E-01    3.83313E-01
     4.04250E+00    4.03016E-01    0.00000E-01    3.98055E-01
     4.12500E+00    4.02993E-01    0.00000E-01    4.02993E-01
     4.20750E+00    4.02970E-01    0.00000E-01    3.98009E-01
     4.29000E+00    4.02947E-01    0.00000E-01    3.83225E-01
     4.37250E+00    4.02923E-01    0.00000E-01    3.59007E-01
     4.45500E+00    4.02900E-01    0.00000E-01    3.25953E-01
     4.53750E+00    4.02877E-01    0.00000E-01    2.84877E-01
     4.62000E+00    4.02854E-01    0.00000E-01    2.36791E-01
     4.70250E+00    4.02830E-01    0.00000E-01    1.82881E-01
     4.78500E+00    4.02807E-01    0.00000E-01    1.24474E-01
     4.86750E+00    4.02784E-01    0.00000E-01    6.30093E-02
     4.95000E+00    4.02761E-01    0.00000E-01    4.33748E-09
     5.03250E+00    4.02737E-01    0.00000E-01   -6.30020E-02
     5.11500E+00    4.02714E-01    0.00000E-01   -1.24446E-01
     5.19750E+00    4.02691E-01    0.00000E-01   -1.82818E-01
     5.28000E+00    4.02668E-01    0.00000E-01   -2.36682E-01
     5.36250E+00    4.02644E-01    0.00000E-01   -2.84713E-01
     5.44500E+00    4.02621E-01    0.00000E-01   -3.25727E-01
     5.52750E+00    4.02598E-01    0.00000E-01   -3.58717E-01
     5.61000E+00    4.02575E-01    0.00000E-01   -3.82871E-01
     5.69250E+00    4.02552E-01    0.00000E-01   -3.97595E-01
     5.77500E+00    4.02528E-01    0.00000E-01   -4.02528E-01
     5.85750E+00    4.02505E-01    0.00000E-01   -3.97550E-01
     5.94000E+00    4.02482E-01    0.00000E-01   -3.82783E-01
     6.02250E+00    4.02459E-01    0.00000E-01   -3.58593E-01
     6.10500E+00    4.02435E-01    0.00000E-01   -3.25577E-01
     6.18750E+00    4.02412E-01    0.00000E-01   -2.84548E-01
     6.27000E+00    4.02389E-01    0.00000E-01   -2.36518E-01
     6.35250E+00    4.02366E-01    0.00000E-01   -1.82670E-01
     6.43500E+00    4.02343E-01    0.00000E-01   -1.24331E-01
     6.51750E+00    4.02319E-01    0.00000E-01   -6.29366E-02
     6.60000E+00    4.02296E-01    0.00000E-01   -5.77664E-09
     6.68250E+00    4.02273E-01    0.00000E-01    6.29293E-02
     6.76500E+00    4.02250E-01    0.00000E-01    1.24302E-01
     6.84750E+00    4.02227E-01    0.00000E-01    1.82607E-01
     6.93000E+00    4.02203E-01    0.00000E-01    2.36409E-01
     7.01250E+00    4.02180E-01    0.00000E-01    2.84384E-01
     7.09500E+00    4.02157E-01    0.00000E-01    3.25352E-01
     7.17750E+00    4.02134E-01    0.00000E-01    3.58304E-01
     7.26000E+00    4.02111E-01    0.00000E-01    3.82430E-01
     7.34250E+00    4.02087E-01    0.00000E-01    3.97137E-01
     7.42500E+00    4.02064E-01    0.00000E-01    4.02064E-01
     7.50750E+00    4.02041E-01    0.00000E-01    3.97091E-01
     7.59000E+00    4.02018E-01    0.00000E-01    3.82342E-01
     7.67250E+00    4.01995E-01    0.00000E-01    3.58180E-01
     7.75500E+00    4.01971E-01    0.00000E-01    3.25202E-01
     7.83750E+00    4.01948E-01    0.00000E-01    2.84220E-01
     7.92000E+00    4.01925E-01    0.00000E-01    2.36246E-01
     8.00250E+00    4.01902E-01    0.00000E-01    1.82460E-01
     8.08500E+00    4.01879E-01    0.00000E-01    1.24187E-01
     8.16750E+00    4.01855E-01    0.00000E-01    6.28641E-02
     8.25000E+00    4.01832E-01    0.00000E-01    7.21247E-09
     8.33250E+00    4.01809E-01    0.00000E-01   -6.28568E-02
     8.41500E+00    4.01786E-01    0.00000E-01   -1.24159E-01
     8.49750E+00    4.01763E-01    0.00000E-01   -1.82396E-01
     8.58000E+00    4.01740E-01    0.00000E-01   -2.36137E-01
     8.66250E+00    4.01716E-01    0.00000E-01   -2.84056E-01
     8.74500E+00    4.01693E-01    0.00000E-01   -3.24977E-01
     8.82750E+00    4.01670E-01    0.00000E-01   -3.57891E-01
     8.91000E+00    4.01647E-01    0.00000E-01   -3.81989E-01
     8.99250E+00    4.01624E-01    0.00000E-01   -3.96679E-01
     9.07500E+00    4.01601E-01    0.00000E-01   -4.01601E-01
     9.15750E+00    4.01577E-01    0.00000E-01   -3.96633E-01
     9.24000E+00    4.01554E-01    0.00000E-01   -3.81901E-01
     9.32250E+00    4.01531E-01    0.00000E-01   -3.57767E-01
     9.40500E+00    4.01508E-01    0.00000E-01   -3.24827E-01
     9.48750E+00    4.01485E-01    0.00000E-01   -2.83893E-01
     9.57000E+00    4.01462E-01    0.00000E-01   -2.35973E-01
     9.65250E+00    4.01439E-01    0.00000E-01   -1.82249E-01
     9.73500E+00    4.01415E-01    0.00000E-01   -1.24044E-01
     9.81750E+00    4.01392E-01    0.00000E-01   -6.27916E-02
     9.90000E+00    4.01369E-01    0.00000E-01   -8.64499E-09
     9.98250E+00    4.01346E-01    0.00000E-01    6.27843E-02
     1.00650E+01    4.01323E-01    0.00000E-01    1.24016E-01
     1.01475E+01    4.01300E-01    0.00000E-01    1.82186E-01
     1.02300E+01    4.01277E-01    0.00000E-01    2.35864E-01
     1.03125E+01    4.01253E-01    0.00000E-01    2.83729E-01
     1.03950E+01    4.01230E-01    0.00000E-01    3.24602E-01
     1.04775E+01    4.01207E-01    0.00000E-01    3.57478E-01
     1.05600E+01    4.01184E-01    0.00000E-01    3.81549E-01
     1.06425E+01    4.01161E-01    0.00000E-01    3.96222E-01
     1.07250E+01    4.01138E-01    0.00000E-01    4.01138E-01
     1.08075E+01    4.01115E-01    0.00000E-01    3.96176E-01
     1.08900E+01    4.01092E-01    0.00000E-01    3.81461E-01
     1.09725E+01    4.01068E-01    0.00000E-01    3.57355E-01
     1.10550E+01    4.01045E-01    0.00000E-01    3.24452E-01
     1.11375E+01    4.01022E-01    0.00000E-01    2.83566E-01
     1.12200E+01    4.00999E-01    0.00000E-01    2.35701E-01
     1.13025E+01    4.00976E-01    0.00000E-01    1.82039E-01
     1.13850E+01    4.00953E-01    0.00000E-01    1.23901E-01
     1.14675E+01    4.00930E-01    0.00000E-01    6.27192E-02
     1.15500E+01    4.00907E-01    0.00000E-01    1.00742E-08
     1.16325E+01    4.00883E-01    0.00000E-01   -6.27120E-02
     1.17150E+01    4.00860E-01    0.00000E-01   -1.23873E-01
     1.17975E+01    4.00837E-01    0.00000E-01   -1.81976E-01
     1.18800E+01    4.00814E-01    0.00000E-01   -2.35593E-01
     1.19625E+01    4.00791E-01    0.00000E-01   -2.83402E-01
     1.20450E+01    4.00768E-01    0.00000E-01   -3.24228E-01
     1.21275E+01    4.00745E-01    0.00000E-01   -3.57066E-01
     1.22100E+01    4.00722E-01    0.00000E-01   -3.81109E-01
     1.22925E+01    4.00699E-01    0.00000E-01   -3.95765E-01
     1.23750E+01    4.00676E-01    0.00000E-01   -4.00676E-01
     1.24575E+01    4.00652E-01    0.00000E-01   -3.95720E-01
     1.25400E+01    4.00629E-01    0.00000E-01   -3.81021E-01
     1.26225E+01    4.00606E-01    0.00000E-01   -3.56943E-01
     1.27050E+01    4.00583E-01    0.00000E-01   -3.24079E-01
     1.27875E+01    4.00560E-01    0.00000E-01   -2.83239E-01
     1.28700E+01    4.00537E-01    0.00000E-01   -2.35430E-01
     1.29525E+01    4.00514E-01    0.00000E-01   -1.81830E-01
     1.30350E+01    4.00491E-01    0.00000E-01   -1.23759E-01
     1.31175E+01    4.00468E-01    0.00000E-01   -6.26470E-02
     1.32000E+01    4.00445E-01    0.00000E-01   -1.15001E-08
     1.32825E+01    4.00422E-01    0.00000E-01    6.26397E-02
     1.33650E+01    4.00399E-01    0.00000E-01    1.23730E-01
     1.34475E+01    4.00376E-01    0.00000E-01    1.81767E-01
     1.35300E+01    4.00352E-01    0.00000E-01    2.35321E-01
     1.36125E+01    4.00329E-01    0.00000E-01    2.83076E-01
     1.36950E+01    4.00306E-01    0.00000E-01    3.23855E-01
     1.37775E+01    4.00283E-01    0.00000E-01    3.56655E-01
     1.38600E+01    4.00260E-01    0.00000E-01    3.80670E-01
     1.39425E+01    4.00237E-01    0.00000E-01    3.95310E-01
     1.40250E+01    4.00214E-01    0.00000E-01    4.00214E-01
     1.41075E+01    4.00191E-01    0.00000E-01    3.95264E-01
     1.41900E+01    4.00168E-01    0.00000E-01    3.80582E-01
     1.42725E+01    4.00145E-01    0.00000E-01    3.56532E-01
     1.43550E+01    4.00122E-01    0.00000E-01    3.23705E-01
     1.44375E+01    4.00099E-01    0.00000E-01    2.82913E-01
     1.45200E+01    4.00076E-01    0.00000E-01    2.35159E-01
     1.46025E+01    4.00053E-01    0.00000E-01    1.81620E-01
     1.46850E+01    4.00030E-01    0.00000E-01    1.23616E-01
     1.47675E+01    4.00007E-01    0.00000E-01    6.25748E-02
     1.48500E+01    3.99984E-01    0.00000E-01    1.29227E-08
     1.49325E+01    3.99961E-01    0.00000E-01   -6.25676E-02
     1.50150E+01    3.99937E-01    0.00000E-01   -1.23587E-01
     1.50975E+01    3.99914E-01    0.00000E-01   -1.81557E-01
     1.51800E+01    3.99891E-01    0.00000E-01   -2.35050E-01
     1.52625E+01    3.99868E-01    0.00000E-01   -2.82750E-01
     1.53450E+01    3.99845E-01    0.00000E-01   -3.23482E-01
     1.54275E+01    3.99822E-01    0.00000E-01   -3.56244E-01
     1.55100E+01    3.99799E-01    0.00000E-01   -3.80232E-01
     1.55925E+01    3.99776E-01    0.00000E-01   -3.94854E-01
     1.56750E+01    3.99753E-01    0.00000E-01   -3.99753E-01
     1.57575E+01    3.99730E-01    0.00000E-01   -3.94809E-01
     1.58400E+01    3.99707E-01    0.00000E-01   -3.80144E-01
     1.59225E+01    3.99684E-01    0.00000E-01   -3.56121E-01
     1.60050E+01    3.99661E-01    0.00000E-01   -3.23333E-01
     1.60875E+01    3.99638E-01    0.00000E-01   -2.82587E-01
     1.61700E+01    3.99615E-01    0.00000E-01   -2.34888E-01
     1.62525E+01    3.99592E-01    0.00000E-01   -1.81411E-01
     1.63350E+01    3.99569E-01    0.00000E-01   -1.23474E-01
     1.64175E+01    3.99546E-01    0.00000E-01   -6.25028E-02
     1.65000E+01    3.99523E-01    0.00000E-01   -1.43421E-08
     1.65825E+01    3.99500E-01    0.00000E-01    6.24956E-02
     1.66650E+01    3.99477E-01    0.00000E-01    1.23445E-01
     1.67475E+01    3.99454E-01    0.00000E-01    1.81348E-01
     1.68300E+01    3.99431E-01    0.00000E-01    2.34780E-01
     1.69125E+01    3.99408E-01    0.00000E-01    2.82424E-01
     1.69950E+01    3.99385E-01    0.00000E-01    3.23109E-01
     1.70775E+01    3.99362E-01    0.00000E-01    3.55834E-01
     1.71600E+01    3.99339E-01    0.00000E-01    3.79794E-01
     1.72425E+01    3.99316E-01    0.00000E-01    3.94400E-01
     1.73250E+01    3.99293E-01    0.00000E-01    3.99293E-01
     1.74075E+01    3.99270E-01    0.00000E-01    3.94354E-01
     1.74900E+01    3.99247E-01    0.00000E-01    3.79706E-01
     1.75725E+01    3.99224E-01    0.00000E-01    3.55711E-01
     1.76550E+01    3.99201E-01    0.00000E-01    3.22960E-01
     1.77375E+01    3.99178E-01    0.00000E-01    2.82262E-01
     1.78200E+01    3.99155E-01    0.00000E-01    2.34617E-01
     1.79025E+01    3.99132E-01    0.00000E-01    1.81202E-01
     1.79850E+01    3.99109E-01    0.00000E-01    1.23332E-01
     1.80675E+01    3.99086E-01    0.00000E-01    6.24308E-02
     1.81500E+01    3.99063E-01    0.00000E-01    1.57581E-08
     1.82325E+01    3.99040E-01    0.00000E-01   -6.24236E-02
     1.83150E+01    3.99017E-01    0.00000E-01   -1.23303E-01
     1.83975E+01    3.98994E-01    0.00000E-01   -1.81140E-01
     1.84800E+01    3.98971E-01    0.00000E-01   -2.34509E-01
     1.85625E+01    3.98948E-01    0.00000E-01   -2.82099E-01
     1.86450E+01    3.98925E-01    0.00000E-01   -3.22737E-01
     1.87275E+01    3.98902E-01    0.00000E-01   -3.55425E-01
     1.88100E+01    3.98879E-01    0.00000E-01   -3.79357E-01
     1.88925E+01    3.98856E-01    0.00000E-01   -3.93946E-01
     1.89750E+01    3.98833E-01    0.00000E-01   -3.98833E-01
     1.90575E+01    3.98810E-01    0.00000E-01   -3.93900E-01
     1.91400E+01    3.98788E-01    0.00000E-01   -3.79269E-01
     1.92225E+01    3.98765E-01    0.00000E-01   -3.55302E-01
     1.93050E+01    3.98742E-01    0.00000E-01   -3.22589E-01
     1.93875E+01    3.98719E-01    0.00000E-01   -2.81937E-01
     1.94700E+01    3.98696E-01    0.00000E-01   -2.34347E-01
     1.95525E+01    3.98673E-01    0.00000E-01   -1.80994E-01
     1.96350E+01    3.98650E-01    0.00000E-01   -1.23190E-01
     1.97175E+01    3.98627E-01    0.00000E-01   -6.23590E-02
     1.98000E+01    3.98604E-01    0.00000E-01   -1.71709E-08
     1.98825E+01    3.98581E-01    0.00000E-01    6.23518E-02
     1.99650E+01    3.98558E-01    0.00000E-01    1.23161E-01
     2.00475E+01    3.98535E-01    0.00000E-01    1.80931E-01
     2.01300E+01    3.98512E-01    0.00000E-01    2.34240E-01
     2.02125E+01    3.98489E-01    0.00000E-01    2.81774E-01
     2.02950E+01    3.98466E-01    0.00000E-01    3.22366E-01
     2.03775E+01    3.98443E-01    0.00000E-01    3.55016E-01
     2.04600E+01    3.98420E-01    0.00000E-01    3.78920E-01
     2.05425E+01    3.98397E-01    0.00000E-01    3.93493E-01
     2.06250E+01    3.98375E-01    0.00000E-01    3.98375E-01
     2.07075E+01    3.98352E-01    0.00000E-01    3.93447E-01
     2.07900E+01    3.98329E-01    0.00000E-01    3.78833E-01
     2.08725E+01    3.98306E-01    0.00000E-01    3.54893E-01
     2.09550E+01    3.98283E-01    0.00000E-01    3.22218E-01
     2.10375E+01    3.98260E-01    0.00000E-01    2.81612E-01
     2.11200E+01    3.98237E-01    0.00000E-01    2.34078E-01
     2.12025E+01    3.98214E-01    0.00000E-01    1.80785E-01
     2.12850E+01    3.98191E-01    0.00000E-01    1.23048E-01
     2.13675E+01    3.98168E-01    0.00000E-01    6.22873E-02
     2.14500E+01    3.98145E-01    0.00000E-01    1.85804E-08
     2.15325E+01    3.98122E-01    0.00000E-01   -6.22800E-02
     2.16150E+01    3.98100E-01    0.00000E-01   -1.23019E-01
     2.16975E+01    3.98077E-01    0.00000E-01   -1.80723E-01
     2.17800E+01    3.98054E-01    0.00000E-01   -2.33970E-01
     2.18625E+01    3.98031E-01    0.00000E-01   -2.81450E-01
     2.19450E+01    3.98008E-01    0.00000E-01   -3.21995E-01
     2.20275E+01    3.97985E-01    0.00000E-01   -3.54607E-01
     2.21100E+01    3.97962E-01    0.00000E-01   -3.78484E-01
     2.21925E+01    3.97939E-01    0.00000E-01   -3.93040E-01
     2.22750E+01    3.97916E-01    0.00000E-01   -3.97916E-01
     2.23575E+01    3.97893E-01    0.00000E-01   -3.92995E-01
     2.24400E+01    3.97870E-01    0.00000E-01   -3.78397E-01
     2.25225E+01    3.97848E-01    0.00000E-01   -3.54485E-01
     2.26050E+01    3.97825E-01    0.00000E-01   -3.21847E-01
     2.26875E+01    3.97802E-01    0.00000E-01   -2.81288E-01
     2.27700E+01    3.97779E-01    0.00000E-01   -2.33809E-01
     2.28525E+01    3.97756E-01    0.00000E-01   -1.80577E-01
     2.29350E+01    3.97733E-01    0.00000E-01   -1.22906E-01
     2.30175E+01    3.97710E-01    0.00000E-01   -6.22156E-02
     2.31000E+01    3.97687E-01    0.00000E-01   -1.99866E-08
     2.31825E+01    3.97665E-01    0.00000E-01    6.22084E-02
     2.32650E+01    3.97642E-01    0.00000E-01    1.22878E-01
     2.33475E+01    3.97619E-01    0.00000E-01    1.80515E-01
     2.34300E+01    3.97596E-01    0.00000E-01    2.33701E-01
     2.35125E+01    3.97573E-01    0.00000E-01    2.81127E-01
     2.35950E+01    3.97550E-01    0.00000E-01    3.21625E-01
     2.36775E+01    3.97527E-01    0.00000E-01    3.54199E-01
     2.37600E+01    3.97504E-01    0.00000E-01    3.78049E-01
     2.38425E+01    3.97482E-01    0.00000E-01    3.92588E-01
     2.39250E+01    3.97459E-01    0.00000E-01    3.97459E-01
     2.40075E+01    3.97436E-01    0.00000E-01    3.92543E-01
     2.40900E+01    3.97413E-01    0.00000E-01    3.77962E-01
     2.41725E+01    3.97390E-01    0.00000E-01    3.54077E-01
     2.42550E+01    3.97367E-01    0.00000E-01    3.21477E-01
     2.43375E+01    3.97344E-01    0.00000E-01    2.80965E-01
     2.44200E+01    3.97322E-01    0.00000E-01    2.33540E-01
     2.45025E+01    3.97299E-01    0.00000E-01    1.80370E-01
     2.45850E+01    3.97276E-01    0.00000E-01    1.22765E-01
     2.46675E+01    3.97253E-01    0.00000E-01    6.21441E-02
     2.47500E+01    3.97230E-01    0.00000E-01    2.13896E-08
     2.48325E+01    3.97207E-01    0.00000E-01   -6.21369E-02
     2.49150E+01    3.97184E-01    0.00000E-01   -1.22737E-01
     2.49975E+01    3.97162E-01    0.00000E-01   -1.80308E-01
     2.50800E+01    3.97139E-01    0.00000E-01   -2.33432E-01
     2.51625E+01    3.97116E-01    0.00000E-01   -2.80803E-01
     2.52450E+01    3.97093E-01    0.00000E-01   -3.21255E-01
     2.53275E+01    3.97070E-01    0.00000E-01   -3.53792E-01
     2.54100E+01    3.97047E-01    0.00000E-01   -3.77615E-01
     2.54925E+01    3.97025E-01    0.00000E-01   -3.92137E-01
     2.55750E+01    3.97002E-01    0.00000E-01   -3.97002E-01
     2.56575E+01    3.96979E-01    0.00000E-01   -3.92091E-01
     2.57400E+01    3.96956E-01    0.00000E-01   -3.77528E-01
     2.58225E+01    3.96933E-01    0.00000E-01   -3.53670E-01
     2.59050E+01    3.96910E-01    0.00000E-01   -3.21107E-01
